Node Number	X Location (m)	Y Location (m)	Z Location (m)	Shear Stress (Pa)
1	-0.575	-8.5725e-017	-0.1	-1898.4
2	-0.57322	-4.9937e-002	-0.1	7092.8
3	-0.56788	-9.962e-002	-0.1	16054
4	-0.559	-0.1488	-0.1	29784
5	-0.54665	-0.19721	-0.1	55867
6	-0.53086	-0.24462	-0.1	81016
7	-0.51174	-0.29079	-0.1	1.304e+005
8	-0.48938	-0.33547	-0.1	1.3814e+005
9	-0.46388	-0.37845	-0.1	1.2026e+005
10	-0.43538	-0.41949	-0.1	1.7578e+005
11	-0.40402	-0.4584	-0.1	1.7823e+005
12	-0.36997	-0.49497	-0.1	2.0478e+005
13	-0.3334	-0.52902	-0.1	2.1347e+005
14	-0.29449	-0.56038	-0.1	1.8939e+005
15	-0.25345	-0.58888	-0.1	1.4781e+005
16	-0.21047	-0.61438	-0.1	1.1761e+005
17	-0.16579	-0.63674	-0.1	1.2725e+005
18	-0.11962	-0.65586	-0.1	1.0333e+005
19	-7.2213e-002	-0.67165	-0.1	62406
20	-2.3796e-002	-0.684	-0.1	23967
21	2.538e-002	-0.69288	-0.1	12095
22	7.5063e-002	-0.69822	-0.1	817.82
23	0.125	-0.7	-0.1	-17001
24	0.17494	-0.69822	-0.1	-18395
25	0.22462	-0.69288	-0.1	-29609
26	0.2738	-0.684	-0.1	-10365
27	0.32221	-0.67165	-0.1	-19499
28	0.36962	-0.65586	-0.1	-10968
29	0.41579	-0.63674	-0.1	-2822.9
30	0.46047	-0.61438	-0.1	-2136.7
31	0.50345	-0.58888	-0.1	5794.9
32	0.54449	-0.56038	-0.1	6212.7
33	0.5834	-0.52902	-0.1	12536
34	0.61997	-0.49497	-0.1	17382
35	0.65402	-0.4584	-0.1	29020
36	0.68538	-0.41949	-0.1	23162
37	0.71388	-0.37845	-0.1	23797
38	0.73938	-0.33547	-0.1	42633
39	0.76174	-0.29079	-0.1	51146
40	0.78086	-0.24462	-0.1	51007
41	0.79665	-0.19721	-0.1	39340
42	0.809	-0.1488	-0.1	36605
43	0.81788	-9.962e-002	-0.1	37504
44	0.82322	-4.9937e-002	-0.1	23187
45	0.825	2.6368e-016	-0.1	-1607.7
46	0.82322	4.9937e-002	-0.1	-20795
47	0.81788	9.962e-002	-0.1	-29716
48	0.809	0.1488	-0.1	-33049
49	0.79665	0.19721	-0.1	-37926
50	0.78086	0.24462	-0.1	-41153
51	0.76174	0.29079	-0.1	-63196
52	0.73938	0.33547	-0.1	-57607
53	0.71388	0.37845	-0.1	-31089
54	0.68538	0.41949	-0.1	-22964
55	0.65402	0.4584	-0.1	-25956
56	0.61997	0.49497	-0.1	-24686
57	0.5834	0.52902	-0.1	-19251
58	0.54449	0.56038	-0.1	-5483.8
59	0.50345	0.58888	-0.1	-8470.1
60	0.46047	0.61438	-0.1	1337.8
61	0.41579	0.63674	-0.1	2105.7
62	0.36962	0.65586	-0.1	17110
63	0.32221	0.67165	-0.1	18509
64	0.2738	0.684	-0.1	11934
65	0.22462	0.69288	-0.1	32437
66	0.17494	0.69822	-0.1	20247
67	0.125	0.7	-0.1	18878
68	7.5063e-002	0.69822	-0.1	6877.4
69	2.538e-002	0.69288	-0.1	-8764.3
70	-2.3796e-002	0.684	-0.1	-38595
71	-7.2213e-002	0.67165	-0.1	-65210
72	-0.11962	0.65586	-0.1	-76323
73	-0.16579	0.63674	-0.1	-91476
74	-0.21047	0.61438	-0.1	-70938
75	-0.25345	0.58888	-0.1	-1.7185e+005
76	-0.29449	0.56038	-0.1	-2.1053e+005
77	-0.3334	0.52902	-0.1	-1.7889e+005
78	-0.36997	0.49497	-0.1	-1.7381e+005
79	-0.40402	0.4584	-0.1	-1.733e+005
80	-0.43538	0.41949	-0.1	-1.3437e+005
81	-0.46388	0.37845	-0.1	-1.3004e+005
82	-0.48938	0.33547	-0.1	-1.2715e+005
83	-0.51174	0.29079	-0.1	-1.3248e+005
84	-0.53086	0.24462	-0.1	-80984
85	-0.54665	0.19721	-0.1	-51281
86	-0.559	0.1488	-0.1	-38462
87	-0.56788	9.962e-002	-0.1	-20863
88	-0.57322	4.9937e-002	-0.1	-8761.8
89	-0.65	-1.	-0.1	-6747.6
90	1.	-1.	-0.1	4974.9
91	-0.6	-1.	-0.1	-4183.
92	-0.55	-1.	-0.1	-6826.5
93	-0.5	-1.	-0.1	-5208.
94	-0.45	-1.	-0.1	-2883.4
95	-0.4	-1.	-0.1	-597.51
96	-0.35	-1.	-0.1	-2797.
97	-0.3	-1.	-0.1	1491.1
98	-0.25	-1.	-0.1	-2280.4
99	-0.2	-1.	-0.1	3238.7
100	-0.15	-1.	-0.1	-1574.8
101	-0.1	-1.	-0.1	-2056.9
102	-5.e-002	-1.	-0.1	-2413.4
103	5.4123e-016	-1.	-0.1	-7428.2
104	5.e-002	-1.	-0.1	-4381.2
105	0.1	-1.	-0.1	-6478.8
106	0.15	-1.	-0.1	-6257.5
107	0.2	-1.	-0.1	-9663.6
108	0.25	-1.	-0.1	-5763.6
109	0.3	-1.	-0.1	-5586.7
110	0.35	-1.	-0.1	-4015.3
111	0.4	-1.	-0.1	-4585.7
112	0.45	-1.	-0.1	-5969.1
113	0.5	-1.	-0.1	519.02
114	0.55	-1.	-0.1	163.45
115	0.6	-1.	-0.1	-1818.9
116	0.65	-1.	-0.1	2343.3
117	0.7	-1.	-0.1	2008.5
118	0.75	-1.	-0.1	3439.
119	0.8	-1.	-0.1	1448.3
120	0.85	-1.	-0.1	524.88
121	0.9	-1.	-0.1	4133.4
122	0.95	-1.	-0.1	6506.4
123	-0.65	1.	-0.1	4244.2
124	-0.65	-0.95	-0.1	5218.5
125	-0.65	-0.9	-0.1	10614
126	-0.65	-0.85	-0.1	-7619.7
127	-0.65	-0.8	-0.1	8474.8
128	-0.65	-0.75	-0.1	10071
129	-0.65	-0.7	-0.1	12037
130	-0.65	-0.65	-0.1	4940.6
131	-0.65	-0.6	-0.1	37918
132	-0.65	-0.55	-0.1	17735
133	-0.65	-0.5	-0.1	13368
134	-0.65	-0.45	-0.1	14927
135	-0.65	-0.4	-0.1	12146
136	-0.65	-0.35	-0.1	16059
137	-0.65	-0.3	-0.1	12467
138	-0.65	-0.25	-0.1	-3881.1
139	-0.65	-0.2	-0.1	4859.
140	-0.65	-0.15	-0.1	-1601.7
141	-0.65	-0.1	-0.1	7318.
142	-0.65	-5.e-002	-0.1	1155.3
143	-0.65	3.1919e-016	-0.1	2608.7
144	-0.65	5.e-002	-0.1	-778.12
145	-0.65	0.1	-0.1	2326.4
146	-0.65	0.15	-0.1	-7591.
147	-0.65	0.2	-0.1	17182
148	-0.65	0.25	-0.1	-11256
149	-0.65	0.3	-0.1	-6123.2
150	-0.65	0.35	-0.1	-19261
151	-0.65	0.4	-0.1	1879.7
152	-0.65	0.45	-0.1	-12467
153	-0.65	0.5	-0.1	-5966.9
154	-0.65	0.55	-0.1	-12799
155	-0.65	0.6	-0.1	-26510
156	-0.65	0.65	-0.1	-6520.4
157	-0.65	0.7	-0.1	-9678.6
158	-0.65	0.75	-0.1	-18619
159	-0.65	0.8	-0.1	-10022
160	-0.65	0.85	-0.1	-16516
161	-0.65	0.9	-0.1	-1225.2
162	-0.65	0.95	-0.1	-14544
163	1.	1.	-0.1	-6800.4
164	-0.6	1.	-0.1	4416.8
165	-0.55	1.	-0.1	10254
166	-0.5	1.	-0.1	5532.3
167	-0.45	1.	-0.1	1366.6
168	-0.4	1.	-0.1	-90.447
169	-0.35	1.	-0.1	-647.2
170	-0.3	1.	-0.1	-467.94
171	-0.25	1.	-0.1	-199.42
172	-0.2	1.	-0.1	-2689.6
173	-0.15	1.	-0.1	1622.1
174	-0.1	1.	-0.1	468.38
175	-5.e-002	1.	-0.1	3276.9
176	5.4123e-016	1.	-0.1	2898.1
177	5.e-002	1.	-0.1	6753.6
178	0.1	1.	-0.1	10869
179	0.15	1.	-0.1	12168
180	0.2	1.	-0.1	5138.7
181	0.25	1.	-0.1	6690.3
182	0.3	1.	-0.1	9566.
183	0.35	1.	-0.1	4199.1
184	0.4	1.	-0.1	4192.2
185	0.45	1.	-0.1	102.58
186	0.5	1.	-0.1	5916.7
187	0.55	1.	-0.1	1314.7
188	0.6	1.	-0.1	-1472.
189	0.65	1.	-0.1	-1876.5
190	0.7	1.	-0.1	-1655.3
191	0.75	1.	-0.1	2203.4
192	0.8	1.	-0.1	911.03
193	0.85	1.	-0.1	-1685.2
194	0.9	1.	-0.1	-4973.9
195	0.95	1.	-0.1	-5285.1
196	1.	0.95	-0.1	5800.6
197	1.	0.9	-0.1	14806
198	1.	0.85	-0.1	22024
199	1.	0.8	-0.1	28466
200	1.	0.75	-0.1	41033
201	1.	0.7	-0.1	52844
202	1.	0.65	-0.1	44737
203	1.	0.6	-0.1	57925
204	1.	0.55	-0.1	59407
205	1.	0.5	-0.1	71908
206	1.	0.45	-0.1	72141
207	1.	0.4	-0.1	75525
208	1.	0.35	-0.1	57031
209	1.	0.3	-0.1	63759
210	1.	0.25	-0.1	59181
211	1.	0.2	-0.1	47639
212	1.	0.15	-0.1	50055
213	1.	0.1	-0.1	30012
214	1.	5.e-002	-0.1	17813
215	1.	-3.1919e-016	-0.1	-701.61
216	1.	-5.e-002	-0.1	-18154
217	1.	-0.1	-0.1	-29793
218	1.	-0.15	-0.1	-52794
219	1.	-0.2	-0.1	-46708
220	1.	-0.25	-0.1	-50983
221	1.	-0.3	-0.1	-74077
222	1.	-0.35	-0.1	-60645
223	1.	-0.4	-0.1	-57778
224	1.	-0.45	-0.1	-62831
225	1.	-0.5	-0.1	-74833
226	1.	-0.55	-0.1	-53764
227	1.	-0.6	-0.1	-58349
228	1.	-0.65	-0.1	-48026
229	1.	-0.7	-0.1	-43500
230	1.	-0.75	-0.1	-40951
231	1.	-0.8	-0.1	-29900
232	1.	-0.85	-0.1	-29190
233	1.	-0.9	-0.1	-14981
234	1.	-0.95	-0.1	-5654.
235	1.	1.	0.1	-4824.7
236	1.	-1.	0.1	6792.9
237	1.	0.95	0.1	3923.4
238	1.	0.9	0.1	16638
239	1.	0.85	0.1	26535
240	1.	0.8	0.1	31080
241	1.	0.75	0.1	41556
242	1.	0.7	0.1	44614
243	1.	0.65	0.1	44057
244	1.	0.6	0.1	59868
245	1.	0.55	0.1	59147
246	1.	0.5	0.1	57713
247	1.	0.45	0.1	67800
248	1.	0.4	0.1	80091
249	1.	0.35	0.1	63477
250	1.	0.3	0.1	66735
251	1.	0.25	0.1	56458
252	1.	0.2	0.1	49648
253	1.	0.15	0.1	49789
254	1.	0.1	0.1	33418
255	1.	5.e-002	0.1	17252
256	1.	-3.1919e-016	0.1	-844.
257	1.	-5.e-002	0.1	-18837
258	1.	-0.1	0.1	-26082
259	1.	-0.15	0.1	-49142
260	1.	-0.2	0.1	-54242
261	1.	-0.25	0.1	-50723
262	1.	-0.3	0.1	-72489
263	1.	-0.35	0.1	-70717
264	1.	-0.4	0.1	-71053
265	1.	-0.45	0.1	-68163
266	1.	-0.5	0.1	-74040
267	1.	-0.55	0.1	-55023
268	1.	-0.6	0.1	-65263
269	1.	-0.65	0.1	-55798
270	1.	-0.7	0.1	-56603
271	1.	-0.75	0.1	-46306
272	1.	-0.8	0.1	-29440
273	1.	-0.85	0.1	-23489
274	1.	-0.9	0.1	-17460
275	1.	-0.95	0.1	-5499.7
276	1.	-1.	-5.e-002	-7431.3
277	1.	-1.	0.	-17443
278	1.	-1.	5.e-002	-6892.
279	1.	1.	-5.e-002	8077.5
280	1.	1.	0.	14308
281	1.	1.	5.e-002	8449.6
282	-0.575	-8.5725e-017	0.1	-1035.7
283	-0.57322	-4.9937e-002	0.1	6622.3
284	-0.56788	-9.962e-002	0.1	12428
285	-0.559	-0.1488	0.1	32903
286	-0.54665	-0.19721	0.1	47104
287	-0.53086	-0.24462	0.1	71865
288	-0.51174	-0.29079	0.1	1.2167e+005
289	-0.48938	-0.33547	0.1	1.3107e+005
290	-0.46388	-0.37845	0.1	1.8027e+005
291	-0.43538	-0.41949	0.1	95098
292	-0.40402	-0.4584	0.1	1.7708e+005
293	-0.36997	-0.49497	0.1	1.559e+005
294	-0.3334	-0.52902	0.1	1.4081e+005
295	-0.29449	-0.56038	0.1	1.7617e+005
296	-0.25345	-0.58888	0.1	1.6427e+005
297	-0.21047	-0.61438	0.1	72666
298	-0.16579	-0.63674	0.1	1.1014e+005
299	-0.11962	-0.65586	0.1	50513
300	-7.2213e-002	-0.67165	0.1	69070
301	-2.3796e-002	-0.684	0.1	23830
302	2.538e-002	-0.69288	0.1	19836
303	7.5063e-002	-0.69822	0.1	-4536.8
304	0.125	-0.7	0.1	-19534
305	0.17494	-0.69822	0.1	-19879
306	0.22462	-0.69288	0.1	-27195
307	0.2738	-0.684	0.1	-14910
308	0.32221	-0.67165	0.1	-19360
309	0.36962	-0.65586	0.1	-9818.1
310	0.41579	-0.63674	0.1	-5442.3
311	0.46047	-0.61438	0.1	1256.3
312	0.50345	-0.58888	0.1	5275.4
313	0.54449	-0.56038	0.1	10940
314	0.5834	-0.52902	0.1	10045
315	0.61997	-0.49497	0.1	22992
316	0.65402	-0.4584	0.1	14229
317	0.68538	-0.41949	0.1	25678
318	0.71388	-0.37845	0.1	45686
319	0.73938	-0.33547	0.1	59695
320	0.76174	-0.29079	0.1	34982
321	0.78086	-0.24462	0.1	47053
322	0.79665	-0.19721	0.1	50878
323	0.809	-0.1488	0.1	27265
324	0.81788	-9.962e-002	0.1	32176
325	0.82322	-4.9937e-002	0.1	15498
326	0.825	2.6368e-016	0.1	1418.4
327	0.82322	4.9937e-002	0.1	-22594
328	0.81788	9.962e-002	0.1	-33552
329	0.809	0.1488	0.1	-25258
330	0.79665	0.19721	0.1	-50104
331	0.78086	0.24462	0.1	-58140
332	0.76174	0.29079	0.1	-58831
333	0.73938	0.33547	0.1	-51630
334	0.71388	0.37845	0.1	-39678
335	0.68538	0.41949	0.1	-26788
336	0.65402	0.4584	0.1	-28025
337	0.61997	0.49497	0.1	-20437
338	0.5834	0.52902	0.1	-14757
339	0.54449	0.56038	0.1	-10188
340	0.50345	0.58888	0.1	-5129.4
341	0.46047	0.61438	0.1	1322.4
342	0.41579	0.63674	0.1	1824.5
343	0.36962	0.65586	0.1	16849
344	0.32221	0.67165	0.1	13467
345	0.2738	0.684	0.1	18993
346	0.22462	0.69288	0.1	28345
347	0.17494	0.69822	0.1	22066
348	0.125	0.7	0.1	14584
349	7.5063e-002	0.69822	0.1	17999
350	2.538e-002	0.69288	0.1	-4156.3
351	-2.3796e-002	0.684	0.1	-26130
352	-7.2213e-002	0.67165	0.1	-60367
353	-0.11962	0.65586	0.1	-96557
354	-0.16579	0.63674	0.1	-94885
355	-0.21047	0.61438	0.1	-1.2255e+005
356	-0.25345	0.58888	0.1	-1.5491e+005
357	-0.29449	0.56038	0.1	-1.223e+005
358	-0.3334	0.52902	0.1	-2.2197e+005
359	-0.36997	0.49497	0.1	-1.6863e+005
360	-0.40402	0.4584	0.1	-1.4608e+005
361	-0.43538	0.41949	0.1	-1.5623e+005
362	-0.46388	0.37845	0.1	-1.3834e+005
363	-0.48938	0.33547	0.1	-1.2301e+005
364	-0.51174	0.29079	0.1	-1.2189e+005
365	-0.53086	0.24462	0.1	-71171
366	-0.54665	0.19721	0.1	-48322
367	-0.559	0.1488	0.1	-29548
368	-0.56788	9.962e-002	0.1	-19373
369	-0.57322	4.9937e-002	0.1	-8498.1
370	-0.65	1.	0.1	-14125
371	-0.6	1.	0.1	10116
372	-0.55	1.	0.1	13245
373	-0.5	1.	0.1	2913.8
374	-0.45	1.	0.1	786.64
375	-0.4	1.	0.1	-114.08
376	-0.35	1.	0.1	-581.61
377	-0.3	1.	0.1	-510.94
378	-0.25	1.	0.1	-274.17
379	-0.2	1.	0.1	-2793.8
380	-0.15	1.	0.1	1024.2
381	-0.1	1.	0.1	530.63
382	-5.e-002	1.	0.1	3105.2
383	5.4123e-016	1.	0.1	3437.1
384	5.e-002	1.	0.1	5028.6
385	0.1	1.	0.1	5262.5
386	0.15	1.	0.1	6190.
387	0.2	1.	0.1	9730.9
388	0.25	1.	0.1	6363.6
389	0.3	1.	0.1	5418.
390	0.35	1.	0.1	3377.4
391	0.4	1.	0.1	6817.6
392	0.45	1.	0.1	-465.1
393	0.5	1.	0.1	-332.35
394	0.55	1.	0.1	3455.9
395	0.6	1.	0.1	-766.79
396	0.65	1.	0.1	-1143.1
397	0.7	1.	0.1	-642.01
398	0.75	1.	0.1	-2757.7
399	0.8	1.	0.1	-1063.9
400	0.85	1.	0.1	-2128.3
401	0.9	1.	0.1	-2094.9
402	0.95	1.	0.1	-5327.3
403	-0.65	-1.	0.1	12562
404	-0.65	0.95	0.1	-7141.
405	-0.65	0.9	0.1	726.06
406	-0.65	0.85	0.1	-5675.4
407	-0.65	0.8	0.1	-1188.6
408	-0.65	0.75	0.1	13914
409	-0.65	0.7	0.1	-12412
410	-0.65	0.65	0.1	6999.
411	-0.65	0.6	0.1	-14367
412	-0.65	0.55	0.1	-10385
413	-0.65	0.5	0.1	-13119
414	-0.65	0.45	0.1	-36046
415	-0.65	0.4	0.1	-7228.5
416	-0.65	0.35	0.1	-15538
417	-0.65	0.3	0.1	-10353
418	-0.65	0.25	0.1	-2201.5
419	-0.65	0.2	0.1	-8062.7
420	-0.65	0.15	0.1	5112.8
421	-0.65	0.1	0.1	-4873.9
422	-0.65	5.e-002	0.1	2056.5
423	-0.65	-3.1919e-016	0.1	-1769.9
424	-0.65	-5.e-002	0.1	5450.4
425	-0.65	-0.1	0.1	3892.9
426	-0.65	-0.15	0.1	-2388.7
427	-0.65	-0.2	0.1	-30674
428	-0.65	-0.25	0.1	-5776.8
429	-0.65	-0.3	0.1	17612
430	-0.65	-0.35	0.1	7998.5
431	-0.65	-0.4	0.1	15945
432	-0.65	-0.45	0.1	29565
433	-0.65	-0.5	0.1	4392.9
434	-0.65	-0.55	0.1	33458
435	-0.65	-0.6	0.1	12284
436	-0.65	-0.65	0.1	4112.8
437	-0.65	-0.7	0.1	2918.1
438	-0.65	-0.75	0.1	7341.3
439	-0.65	-0.8	0.1	4091.6
440	-0.65	-0.85	0.1	14621
441	-0.65	-0.9	0.1	-553.89
442	-0.65	-0.95	0.1	15071
443	-0.6	-1.	0.1	-13715
444	-0.55	-1.	0.1	-8260.7
445	-0.5	-1.	0.1	-4284.
446	-0.45	-1.	0.1	-2871.2
447	-0.4	-1.	0.1	-322.49
448	-0.35	-1.	0.1	-462.7
449	-0.3	-1.	0.1	3192.2
450	-0.25	-1.	0.1	-415.04
451	-0.2	-1.	0.1	2768.3
452	-0.15	-1.	0.1	-1222.1
453	-0.1	-1.	0.1	-2384.
454	-5.e-002	-1.	0.1	-2751.
455	5.4123e-016	-1.	0.1	-4676.3
456	5.e-002	-1.	0.1	-8114.9
457	0.1	-1.	0.1	-4331.
458	0.15	-1.	0.1	-7673.
459	0.2	-1.	0.1	-1871.9
460	0.25	-1.	0.1	-8043.5
461	0.3	-1.	0.1	-1430.6
462	0.35	-1.	0.1	-7327.2
463	0.4	-1.	0.1	-2246.4
464	0.45	-1.	0.1	2010.3
465	0.5	-1.	0.1	806.13
466	0.55	-1.	0.1	781.97
467	0.6	-1.	0.1	-1016.6
468	0.65	-1.	0.1	-1728.9
469	0.7	-1.	0.1	2562.7
470	0.75	-1.	0.1	-803.39
471	0.8	-1.	0.1	1574.
472	0.85	-1.	0.1	366.85
473	0.9	-1.	0.1	2556.7
474	0.95	-1.	0.1	2803.1
475	-0.75	-1.	0.2	-38015
476	-0.75	-1.	1.	4.3421
477	-0.75	-1.	0.25	-11628
478	-0.75	-1.	0.3	-4241.7
479	-0.75	-1.	0.35	-612.85
480	-0.75	-1.	0.4	1479.9
481	-0.75	-1.	0.45	1268.
482	-0.75	-1.	0.5	458.56
483	-0.75	-1.	0.55	145.31
484	-0.75	-1.	0.6	93.14
485	-0.75	-1.	0.65	43.562
486	-0.75	-1.	0.7	18.133
487	-0.75	-1.	0.75	-29.465
488	-0.75	-1.	0.8	-52.794
489	-0.75	-1.	0.85	-13.859
490	-0.75	-1.	0.9	-25.569
491	-0.75	-1.	0.95	22.766
492	-0.75	1.	0.2	44733
493	-0.75	-0.95	0.2	-1.6511e+005
494	-0.75	-0.9	0.2	-1.0941e+005
495	-0.75	-0.85	0.2	-87447
496	-0.75	-0.8	0.2	-54288
497	-0.75	-0.75	0.2	-27460
498	-0.75	-0.7	0.2	-9264.4
499	-0.75	-0.65	0.2	8772.5
500	-0.75	-0.6	0.2	27879
501	-0.75	-0.55	0.2	35929
502	-0.75	-0.5	0.2	49372
503	-0.75	-0.45	0.2	48221
504	-0.75	-0.4	0.2	52442
505	-0.75	-0.35	0.2	49139
506	-0.75	-0.3	0.2	39982
507	-0.75	-0.25	0.2	47367
508	-0.75	-0.2	0.2	34395
509	-0.75	-0.15	0.2	29457
510	-0.75	-0.1	0.2	19502
511	-0.75	-5.e-002	0.2	9524.9
512	-0.75	3.1919e-016	0.2	682.56
513	-0.75	5.e-002	0.2	-9960.
514	-0.75	0.1	0.2	-19132
515	-0.75	0.15	0.2	-30084
516	-0.75	0.2	0.2	-38979
517	-0.75	0.25	0.2	-42313
518	-0.75	0.3	0.2	-44551
519	-0.75	0.35	0.2	-50716
520	-0.75	0.4	0.2	-50032
521	-0.75	0.45	0.2	-49624
522	-0.75	0.5	0.2	-39336
523	-0.75	0.55	0.2	-39662
524	-0.75	0.6	0.2	-24320
525	-0.75	0.65	0.2	-10568
526	-0.75	0.7	0.2	7329.2
527	-0.75	0.75	0.2	26358
528	-0.75	0.8	0.2	63304
529	-0.75	0.85	0.2	1.0385e+005
530	-0.75	0.9	0.2	1.2921e+005
531	-0.75	0.95	0.2	1.4878e+005
532	-0.75	1.	1.	-9.1961
533	-0.75	1.	0.25	14674
534	-0.75	1.	0.3	3953.9
535	-0.75	1.	0.35	899.26
536	-0.75	1.	0.4	-353.13
537	-0.75	1.	0.45	-718.38
538	-0.75	1.	0.5	-270.43
539	-0.75	1.	0.55	-430.31
540	-0.75	1.	0.6	-191.9
541	-0.75	1.	0.65	-35.706
542	-0.75	1.	0.7	18.75
543	-0.75	1.	0.75	59.368
544	-0.75	1.	0.8	48.653
545	-0.75	1.	0.85	39.284
546	-0.75	1.	0.9	-6.6667
547	-0.75	1.	0.95	-22.248
548	-0.75	0.95	1.	-46.63
549	-0.75	0.9	1.	-60.579
550	-0.75	0.85	1.	-63.155
551	-0.75	0.8	1.	-68.478
552	-0.75	0.75	1.	-13.65
553	-0.75	0.7	1.	-9.3354
554	-0.75	0.65	1.	-2.7189
555	-0.75	0.6	1.	10.456
556	-0.75	0.55	1.	-0.90345
557	-0.75	0.5	1.	-13.486
558	-0.75	0.45	1.	-24.438
559	-0.75	0.4	1.	-22.398
560	-0.75	0.35	1.	-28.123
561	-0.75	0.3	1.	-48.966
562	-0.75	0.25	1.	-20.717
563	-0.75	0.2	1.	-15.638
564	-0.75	0.15	1.	-14.905
565	-0.75	0.1	1.	-8.979
566	-0.75	5.e-002	1.	14.007
567	-0.75	-3.1919e-016	1.	2.7986
568	-0.75	-5.e-002	1.	3.1391
569	-0.75	-0.1	1.	5.4549
570	-0.75	-0.15	1.	20.791
571	-0.75	-0.2	1.	17.385
572	-0.75	-0.25	1.	16.149
573	-0.75	-0.3	1.	18.52
574	-0.75	-0.35	1.	15.148
575	-0.75	-0.4	1.	8.0625
576	-0.75	-0.45	1.	12.713
577	-0.75	-0.5	1.	22.104
578	-0.75	-0.55	1.	7.5102
579	-0.75	-0.6	1.	-17.995
580	-0.75	-0.65	1.	9.0292
581	-0.75	-0.7	1.	24.954
582	-0.75	-0.75	1.	27.552
583	-0.75	-0.8	1.	41.187
584	-0.75	-0.85	1.	55.734
585	-0.75	-0.9	1.	81.278
586	-0.75	-0.95	1.	40.169
587	-1.	1.	1.	-1.9326e-008
588	-1.	-1.	1.	1.9066e-008
589	-1.	0.95	1.	-41.912
590	-1.	0.9	1.	28.502
591	-1.	0.85	1.	2.1037e-008
592	-1.	0.8	1.	2.0809e-008
593	-1.	0.75	1.	-85.495
594	-1.	0.7	1.	40.792
595	-1.	0.65	1.	-1.8353e-011
596	-1.	0.6	1.	-2.016e-010
597	-1.	0.55	1.	2.6717
598	-1.	0.5	1.	-80.676
599	-1.	0.45	1.	12.643
600	-1.	0.4	1.	86.981
601	-1.	0.35	1.	2.0053e-009
602	-1.	0.3	1.	-0.6241
603	-1.	0.25	1.	-6.6858e-009
604	-1.	0.2	1.	-67.425
605	-1.	0.15	1.	-15.164
606	-1.	0.1	1.	39.535
607	-1.	5.e-002	1.	4.682e-009
608	-1.	-3.1919e-016	1.	-1.1372e-009
609	-1.	-5.e-002	1.	-37.623
610	-1.	-0.1	1.	-2.1266e-008
611	-1.	-0.15	1.	-52.442
612	-1.	-0.2	1.	44.114
613	-1.	-0.25	1.	-2.1663e-010
614	-1.	-0.3	1.	7.4644
615	-1.	-0.35	1.	-2.9542e-008
616	-1.	-0.4	1.	3.654e-008
617	-1.	-0.45	1.	0.54361
618	-1.	-0.5	1.	-1.5326e-010
619	-1.	-0.55	1.	-87.631
620	-1.	-0.6	1.	-8.7316
621	-1.	-0.65	1.	58.313
622	-1.	-0.7	1.	6.851e-008
623	-1.	-0.75	1.	56.106
624	-1.	-0.8	1.	-8.2722e-009
625	-1.	-0.85	1.	-33.636
626	-1.	-0.9	1.	-5.6839e-008
627	-1.	-0.95	1.	50.914
628	-0.8	-1.	1.	-27.51
629	-0.85	-1.	1.	-39.331
630	-0.9	-1.	1.	-52.639
631	-0.95	-1.	1.	-67.324
632	-0.8	1.	1.	18.415
633	-0.85	1.	1.	47.023
634	-0.9	1.	1.	49.844
635	-0.95	1.	1.	27.894
636	-1.	1.	-1.	-1.9554e-008
637	-1.	-1.	-1.	1.9491e-008
638	-1.	0.95	-1.	-28.63
639	-1.	0.9	-1.	-5.2054e-011
640	-1.	0.85	-1.	-7.7537
641	-1.	0.8	-1.	3.7885e-008
642	-1.	0.75	-1.	-77.532
643	-1.	0.7	-1.	10.242
644	-1.	0.65	-1.	89.672
645	-1.	0.6	-1.	-1.5629e-008
646	-1.	0.55	-1.	9.7171
647	-1.	0.5	-1.	-2.5029e-009
648	-1.	0.45	-1.	3.0435
649	-1.	0.4	-1.	5.0031e-009
650	-1.	0.35	-1.	-89.246
651	-1.	0.3	-1.	-13.863
652	-1.	0.25	-1.	92.027
653	-1.	0.2	-1.	3.3893e-010
654	-1.	0.15	-1.	47.097
655	-1.	0.1	-1.	-2.0162e-008
656	-1.	5.e-002	-1.	-1.7431e-008
657	-1.	-3.1919e-016	-1.	-30.438
658	-1.	-5.e-002	-1.	33.14
659	-1.	-0.1	-1.	7.9312e-009
660	-1.	-0.15	-1.	-1.943e-010
661	-1.	-0.2	-1.	-3.2157
662	-1.	-0.25	-1.	4.483e-009
663	-1.	-0.3	-1.	-1.3947e-009
664	-1.	-0.35	-1.	-4.6026
665	-1.	-0.4	-1.	1.651e-008
666	-1.	-0.45	-1.	12.756
667	-1.	-0.5	-1.	40.244
668	-1.	-0.55	-1.	-1.9055e-008
669	-1.	-0.6	-1.	-4.8017e-009
670	-1.	-0.65	-1.	2.6553
671	-1.	-0.7	-1.	-2.6952e-008
672	-1.	-0.75	-1.	-40.181
673	-1.	-0.8	-1.	-6.6158e-010
674	-1.	-0.85	-1.	27.381
675	-1.	-0.9	-1.	1.9834e-008
676	-1.	-0.95	-1.	29.777
677	-1.	-1.	0.95	-1.1566
678	-1.	-1.	0.9	31.685
679	-1.	-1.	0.85	3.0277e-007
680	-1.	-1.	0.8	5.1333
681	-1.	-1.	0.75	1.7841e-007
682	-1.	-1.	0.7	62.868
683	-1.	-1.	0.65	-110.88
684	-1.	-1.	0.6	134.77
685	-1.	-1.	0.55	172.85
686	-1.	-1.	0.5	294.67
687	-1.	-1.	0.45	-5.5343e-007
688	-1.	-1.	0.4	477.26
689	-1.	-1.	0.35	-1426.5
690	-1.	-1.	0.3	-1125.5
691	-1.	-1.	0.25	3.4204e-006
692	-1.	-1.	0.2	-1839.1
693	-1.	-1.	0.15	2.0398e-005
694	-1.	-1.	0.1	6026.2
695	-1.	-1.	5.e-002	-2420.9
696	-1.	-1.	-3.1919e-016	4.1095e-006
697	-1.	-1.	-5.e-002	2379.5
698	-1.	-1.	-0.1	-4.571e-006
699	-1.	-1.	-0.15	1941.4
700	-1.	-1.	-0.2	-5140.8
701	-1.	-1.	-0.25	7697.3
702	-1.	-1.	-0.3	1.9637e-006
703	-1.	-1.	-0.35	-909.62
704	-1.	-1.	-0.4	-343.55
705	-1.	-1.	-0.45	669.96
706	-1.	-1.	-0.5	-6.9224e-007
707	-1.	-1.	-0.55	-390.98
708	-1.	-1.	-0.6	-35.595
709	-1.	-1.	-0.65	128.3
710	-1.	-1.	-0.7	2.3515
711	-1.	-1.	-0.75	-7.1619e-007
712	-1.	-1.	-0.8	-2.6955e-007
713	-1.	-1.	-0.85	8.0937
714	-1.	-1.	-0.9	1.5747e-007
715	-1.	-1.	-0.95	47.908
716	-1.	1.	0.95	-0.55799
717	-1.	1.	0.9	5.6776e-008
718	-1.	1.	0.85	18.638
719	-1.	1.	0.8	4.9403e-007
720	-1.	1.	0.75	-16.039
721	-1.	1.	0.7	1.0905e-007
722	-1.	1.	0.65	-9.4035e-008
723	-1.	1.	0.6	148.51
724	-1.	1.	0.55	-3.0137e-007
725	-1.	1.	0.5	-299.95
726	-1.	1.	0.45	-250.5
727	-1.	1.	0.4	152.67
728	-1.	1.	0.35	-1891.4
729	-1.	1.	0.3	1374.7
730	-1.	1.	0.25	-4073.7
731	-1.	1.	0.2	-4058.1
